# SWOT science_sept2015 Orbit (initialized to have Science-pass#332 = CalVal-pass#28 : pass#332 Descending Node at -144.67433 deg of longitude)
# Geodetic WGS84 coordinates of the TIRF trajectory (J6 effects only)
# Initial time = start of pass#1
# relative time[s], WGS84 longitude[deg], WGS84 geodetic latitude[deg], WGS84 geodetic altitude[m]
0 276.652655 -77.662869 921069.6436
30 284.598720 -77.543254 921049.9480
60 292.250522 -77.191100 920990.9228
90 299.374385 -76.624734 920892.7525
120 305.829656 -75.869849 920755.7444
150 311.566490 -74.954738 920580.3269
180 316.602318 -73.906646 920367.0491
210 320.993939 -72.749720 920116.5784
240 324.815181 -71.504290 919829.6989
270 328.142590 -70.186952 919507.3090
300 331.047791 -68.811024 919150.4184
330 333.594226 -67.387106 918760.1452
360 335.836393 -65.923617 918337.7122
390 337.820303 -64.427256 917884.4430
420 339.584462 -62.903372 917401.7580
450 341.160972 -61.356265 916891.1694
480 342.576581 -59.789410 916354.2764
510 343.853615 -58.205635 915792.7600
540 345.010761 -56.607260 915208.3770
570 346.063722 -54.996199 914602.9544
600 347.025748 -53.374043 913978.3826
630 347.908075 -51.742124 913336.6093
660 348.720272 -50.101565 912679.6324
690 349.470531 -48.453317 912009.4931
720 350.165895 -46.798194 911328.2684
750 350.812452 -45.136894 910638.0640
780 351.415487 -43.470019 909941.0063
810 351.979607 -41.798096 909239.2352
840 352.508849 -40.121584 908534.8958
870 353.006766 -38.440887 907830.1313
900 353.476496 -36.756365 907127.0745
930 353.920824 -35.068338 906427.8407
960 354.342232 -33.377092 905734.5197
990 354.742941 -31.682888 905049.1684
1020 355.124946 -29.985961 904373.8035
1050 355.490050 -28.286526 903710.3940
1080 355.839882 -26.584784 903060.8547
1110 356.175930 -24.880917 902427.0391
1140 356.499551 -23.175098 901810.7331
1170 356.811991 -21.467487 901213.6487
1200 357.114400 -19.758238 900637.4185
1230 357.407844 -18.047493 900083.5897
1260 357.693317 -16.335392 899553.6193
1290 357.971747 -14.622065 899048.8691
1320 358.244010 -12.907642 898570.6015
1350 358.510934 -11.192246 898119.9754
1380 358.773308 -9.475997 897698.0422
1410 359.031887 -7.759013 897305.7433
1440 359.287400 -6.041410 896943.9063
1470 359.540553 -4.323302 896613.2437
1500 359.792035 -2.604802 896314.3499
1530 0.042525 -0.886022 896047.7003
1560 0.292695 0.832926 895813.6497
1590 0.543212 2.551930 895612.4316
1620 0.794750 4.270879 895444.1583
1650 1.047986 5.989659 895308.8202
1680 1.303612 7.708158 895206.2872
1710 1.562335 9.426259 895136.3088
1740 1.824886 11.143845 895098.5160
1770 2.092021 12.860798 895092.4227
1800 2.364532 14.576993 895117.4283
1830 2.643252 16.292306 895172.8199
1860 2.929057 18.006605 895257.7753
1890 3.222883 19.719756 895371.3667
1920 3.525728 21.431617 895512.5645
1950 3.838662 23.142041 895680.2411
1980 4.162844 24.850872 895873.1762
2010 4.499528 26.557944 896090.0610
2040 4.850080 28.263081 896329.5041
2070 5.215997 29.966094 896590.0369
2100 5.598924 31.666779 896870.1198
2130 6.000676 33.364914 897168.1482
2160 6.423266 35.060259 897482.4596
2190 6.868936 36.752545 897811.3397
2220 7.340192 38.441480 898153.0301
2250 7.839846 40.126736 898505.7355
2280 8.371070 41.807944 898867.6306
2310 8.937458 43.484692 899236.8682
2340 9.543091 45.156508 899611.5864
2370 10.192637 46.822856 899989.9167
2400 10.891449 48.483119 900369.9913
2430 11.645697 50.136584 900749.9510
2460 12.462526 51.782422 901127.9526
2490 13.350252 53.419660 901502.1767
2520 14.318597 55.047151 901870.8349
2550 15.378984 56.663535 902232.1771
2580 16.544895 58.267186 902584.4982
2610 17.832325 59.856148 902926.1454
2640 19.260322 61.428049 903255.5246
2670 20.851664 62.979993 903571.1061
2700 22.633666 64.508421 903871.4315
2730 24.639135 66.008927 904155.1185
2760 26.907449 67.476019 904420.8666
2790 29.485685 68.902817 904667.4621
2820 32.429590 70.280665 904893.7824
2850 35.804013 71.598655 905098.8002
2880 39.681987 72.843076 905281.5878
2910 44.141157 73.996844 905441.3196
2940 49.255541 75.039050 905577.2762
2970 55.080284 75.944931 905688.8459
3000 61.628193 76.686694 905775.5277
3030 68.841105 77.235746 905836.9330
3060 76.567115 77.566571 905872.7865
3090 84.561346 77.661624 905882.9276
3120 92.522699 77.515526 905867.3110
3150 100.157255 77.136481 905826.0065
3180 107.238092 76.544136 905759.1992
3210 113.634251 75.765059 905667.1884
3240 119.305010 74.827941 905550.3871
3270 124.274505 73.760063 905409.3198
3300 128.603586 72.585402 905244.6212
3330 132.368048 71.324028 905057.0336
3360 135.645052 69.992265 904847.4047
3390 138.506074 68.603178 904616.6835
3420 141.014042 67.167153 904365.9180
3450 143.222798 65.692432 904096.2505
3480 145.177689 64.185570 903808.9136
3510 146.916601 62.651803 903505.2256
3540 148.471087 61.095343 903186.5853
3570 149.867423 59.519591 902854.4670
3600 151.127529 57.927322 902510.4144
3630 152.269754 56.320812 902156.0347
3660 153.309514 54.701939 901792.9924
3690 154.259822 53.072270 901423.0026
3720 155.131710 51.433114 901047.8243
3750 155.934577 49.785578 900669.2531
3780 156.676474 48.130602 900289.1141
3810 157.364322 46.468988 899909.2544
3840 158.004107 44.801429 899531.5357
3870 158.601025 43.128522 899157.8266
3900 159.159611 41.450788 898789.9950
3930 159.683837 39.768686 898429.9001
3960 160.177199 38.082619 898079.3851
3990 160.642789 36.392945 897740.2696
4020 161.083351 34.699984 897414.3418
4050 161.501331 33.004025 897103.3513
4080 161.898918 31.305328 896809.0017
4110 162.278082 29.604130 896532.9440
4140 162.640599 27.900649 896276.7694
4170 162.988082 26.195085 896042.0030
4200 163.321996 24.487625 895830.0974
4230 163.643685 22.778442 895642.4269
4260 163.954380 21.067699 895480.2820
4290 164.255220 19.355552 895344.8637
4320 164.547259 17.642145 895237.2790
4350 164.831481 15.927619 895158.5363
4380 165.108809 14.212108 895109.5412
4410 165.380109 12.495741 895091.0930
4440 165.646204 10.778644 895103.8808
4470 165.907878 9.060938 895148.4812
4500 166.165882 7.342743 895225.3556
4530 166.420941 5.624175 895334.8478
4560 166.673759 3.905349 895477.1828
4590 166.925023 2.186379 895652.4653
4620 167.175411 0.467377 895860.6788
4650 167.425592 -1.251544 896101.6854
4680 167.676237 -2.970274 896375.2256
4710 167.928018 -4.688700 896680.9190
4740 168.181614 -6.406710 897018.2647
4770 168.437719 -8.124191 897386.6431
4800 168.697044 -9.841028 897785.3171
4830 168.960321 -11.557106 898213.4344
4860 169.228313 -13.272306 898670.0303
4890 169.501817 -14.986506 899154.0301
4920 169.781670 -16.699583 899664.2525
4950 170.068758 -18.411407 900199.4138
4980 170.364023 -20.121845 900758.1315
5010 170.668473 -21.830759 901338.9289
5040 170.983191 -23.538001 901940.2403
5070 171.309347 -25.243419 902560.4157
5100 171.648208 -26.946849 903197.7269
5130 172.001159 -28.648116 903850.3730
5160 172.369715 -30.347035 904516.4871
5190 172.755541 -32.043402 905194.1422
5220 173.160477 -33.736997 905881.3586
5250 173.586565 -35.427581 906576.1104
5280 174.036077 -37.114888 907276.3331
5310 174.511557 -38.798625 907979.9308
5340 175.015860 -40.478463 908684.7840
5370 175.552207 -42.154035 909388.7568
5400 176.124246 -43.824925 910089.7051
5430 176.736129 -45.490660 910785.4842
5460 177.392597 -47.150701 911473.9565
5490 178.099096 -48.804424 912152.9992
5520 178.861900 -50.451109 912820.5123
5550 179.688282 -52.089916 913474.4256
5580 180.586705 -53.719859 914112.7066
5610 181.567066 -55.339775 914733.3675
5640 182.640997 -56.948282 915334.4722
5670 183.822230 -58.543725 915914.1432
5700 185.127056 -60.124111 916470.5679
5730 186.574876 -61.687023 917002.0052
5760 188.188884 -63.229507 917506.7911
5790 189.996887 -64.747929 917983.3443
5820 192.032255 -66.237789 918430.1718
5850 194.334999 -67.693476 918845.8734
5880 196.952864 -69.107960 919229.1465
5910 199.942237 -70.472399 919578.7904
5940 203.368427 -71.775663 919893.7097
5970 207.304492 -73.003783 920172.9181
6000 211.827233 -74.139399 920415.5413
6030 217.008318 -75.161356 920620.8199
6060 222.898311 -76.044752 920788.1114
6090 229.502735 -76.761894 920916.8923
6120 236.753964 -77.284684 921006.7598
6150 244.490692 -77.588582 921057.4328
6180 252.462415 -77.657435 921068.7527
6210 260.369281 -77.487367 921040.6842
6240 267.925470 -77.087802 920973.3150
6270 274.915623 -76.479039 920866.8560
6300 281.219581 -75.687704 920721.6400
6330 286.804150 -74.742119 920538.1214
6360 291.697370 -73.668986 920316.8745
6390 295.961260 -72.491669 920058.5918
6420 299.671166 -71.229677 919764.0819
6450 302.903044 -69.898865 919434.2671
6480 305.726944 -68.511926 919070.1804
6510 308.204412 -67.078953 918672.9624
6540 310.388078 -65.607964 918243.8578
6570 312.322267 -64.105341 917784.2112
6600 314.044031 -62.576190 917295.4627
6630 315.584248 -61.024617 916779.1437
6660 316.968654 -59.453946 916236.8711
6690 318.218739 -57.866888 915670.3425
6720 319.352505 -56.265666 915081.3302
6750 320.385093 -54.652122 914471.6751
6780 321.329292 -53.027786 913843.2804
6810 322.195955 -51.393942 913198.1052
6840 322.994337 -49.751674 912538.1571
6870 323.732368 -48.101900 911865.4855
6900 324.416873 -46.445408 911182.1742
6930 325.053757 -44.782875 910490.3338
6960 325.648151 -43.114885 909792.0944
6990 326.204534 -41.441950 909089.5974
7020 326.726832 -39.764515 908384.9885
7050 327.218505 -38.082977 907680.4090
7080 327.682611 -36.397684 906977.9889
7110 328.121867 -34.708949 906279.8385
7140 328.538695 -33.017053 905588.0413
7170 328.935267 -31.322251 904904.6464
7200 329.313533 -29.624773 904231.6607
7230 329.675258 -27.924832 903571.0424
7260 330.022039 -26.222623 902924.6939
7290 330.355335 -24.518327 902294.4546
7320 330.676477 -22.812113 901682.0954
7350 330.986690 -21.104142 901089.3119
7380 331.287107 -19.394562 900517.7189
7410 331.578775 -17.683518 899968.8448
7440 331.862674 -15.971145 899444.1268
7470 332.139721 -14.257575 898944.9061
7500 332.410781 -12.542935 898472.4231
7530 332.676673 -10.827347 898027.8143
7560 332.938177 -9.110932 897612.1079
7590 333.196045 -7.393807 897226.2214
7620 333.450997 -5.676087 896870.9581
7650 333.703737 -3.957886 896547.0055
7680 333.954952 -2.239317 896254.9328
7710 334.205318 -0.520492 895995.1899
7740 334.455505 1.198477 895768.1057
7770 334.706183 2.917479 895573.8882
7800 334.958025 4.636401 895412.6235
7830 335.211711 6.355131 895284.2766
7860 335.467936 8.073555 895188.6914
7890 335.727411 9.791557 895125.5923
7920 335.990872 11.509018 895094.5851
7950 336.259083 13.225820 895095.1593
7980 336.532843 14.941838 895126.6899
8010 336.812994 16.656946 895188.4408
8040 337.100425 18.371013 895279.5669
8070 337.396083 20.083902 895399.1185
8100 337.700981 21.795470 895546.0447
8130 338.016207 23.505569 895719.1979
8160 338.342939 25.214039 895917.3384
8190 338.682453 26.920715 896139.1395
8220 339.036143 28.625416 896383.1928
8250 339.405534 30.327952 896648.0142
8280 339.792306 32.028114 896932.0496
8310 340.198314 33.725677 897233.6817
8340 340.625616 35.420395 897551.2363
8370 341.076507 37.111994 897882.9891
8400 341.553555 38.800176 898227.1734
8430 342.059644 40.484603 898581.9866
8460 342.598030 42.164899 898945.5984
8490 343.172403 43.840639 899316.1577
8520 343.786962 45.511339 899691.8005
8550 344.446511 47.176448 900070.6579
8580 345.156565 48.835329 900450.8633
8610 345.923486 50.487247 900830.5602
8640 346.754652 52.131342 901207.9099
8670 347.658655 53.766609 901581.0989
8700 348.645553 55.391861 901948.3464
8730 349.727174 57.005684 902307.9113
8760 350.917493 58.606388 902658.0991
8790 352.233105 60.191936 902997.2688
8820 353.693791 61.759855 903323.8396
8850 355.323220 63.307122 903636.2965
8880 357.149791 64.830014 903933.1967
8910 359.207615 66.323916 904213.1749
8940 1.537613 67.783069 904474.9487
8970 4.188635 69.200251 904717.3234
9000 7.218360 70.566369 904939.1964
9030 10.693516 71.869968 905139.5611
9060 14.688541 73.096666 905317.5114
9090 19.281202 74.228594 905472.2440
9120 24.543055 75.244006 905603.0620
9150 30.522470 76.117385 905709.3774
9180 37.219588 76.820526 905790.7129
9210 44.557711 77.325114 905846.7036
9240 52.363964 77.606909 905877.0988
9270 60.377213 77.650668 905881.7624
9300 68.292165 77.453905 905860.6734
9330 75.824901 77.027545 905813.9263
9360 82.767771 76.393128 905741.7304
9390 89.010439 75.578046 905644.4095
9420 94.528410 74.610931 905522.4003
9450 99.355847 73.518468 905376.2508
9480 103.558314 72.323819 905206.6191
9510 107.212777 71.046229 905014.2700
9540 110.395604 69.701282 904800.0728
9570 113.176589 68.301424 904564.9982
9600 115.616722 66.856544 904310.1143
9630 117.767966 65.374488 904036.5832
9660 119.673988 63.861505 903745.6560
9690 121.371234 62.322591 903438.6686
9720 122.890049 60.761766 903117.0364
9750 124.255712 59.182289 902782.2487
9780 125.489322 57.586816 902435.8634
9810 126.608556 55.977531 902079.5004
9840 127.628278 54.356241 901714.8355
9870 128.561045 52.724451 901343.5938
9900 129.417518 51.083427 900967.5426
9930 130.206788 49.434235 900588.4843
9960 130.936645 47.777785 900208.2494
9990 131.613800 46.114852 899828.6888
10020 132.244059 44.446108 899451.6663
10050 132.832466 42.772134 899079.0508
10080 133.383430 41.093435 898712.7092
10110 133.900814 39.410458 898354.4979
10140 134.388025 37.723595 898006.2557
10170 134.848074 36.033196 897669.7961
10200 135.283638 34.339575 897346.8998
10230 135.697105 32.643012 897039.3070
10260 136.090617 30.943764 896748.7109
10290 136.466098 29.242063 896476.7504
10320 136.825289 27.538123 896225.0030
10350 137.169767 25.832140 895994.9790
10380 137.500974 24.124300 895788.1148
10410 137.820225 22.414772 895605.7673
10440 138.128732 20.703718 895449.2085
10470 138.427614 18.991290 895319.6196
10500 138.717911 17.277634 895218.0873
10530 139.000592 15.562888 895145.5983
10560 139.276567 13.847184 895103.0359
10590 139.546692 12.130652 895091.1762
10620 139.811783 10.413415 895110.6846
10650 140.072615 8.695595 895162.1135
10680 140.329933 6.977311 895245.8994
10710 140.584457 5.258678 895362.3610
10740 140.836887 3.539812 895511.6977
10770 141.087909 1.820826 895693.9885
10800 141.338196 0.101832 895909.1913
10830 141.588420 -1.617058 896157.1421
10860 141.839250 -3.335732 896437.5558
10890 142.091360 -5.054079 896750.0261
10920 142.345431 -6.771986 897094.0269
10950 142.602160 -8.489340 897468.9133
10980 142.862263 -10.206026 897873.9237
11010 143.126478 -11.921927 898308.1817
11040 143.395575 -13.636924 898770.6988
11070 143.670357 -15.350896 899260.3773
11100 143.951672 -17.063717 899776.0139
11130 144.240418 -18.775258 900316.3035
11160 144.537550 -20.485384 900879.8433
11190 144.844090 -22.193955 901465.1371
11220 145.161139 -23.900822 902070.6008
11250 145.489887 -25.605831 902694.5674
11280 145.831625 -27.308816 903335.2927
11310 146.187762 -29.009600 903990.9613
11340 146.559846 -30.707994 904659.6928
11370 146.949575 -32.403790 905339.5486
11400 147.358831 -34.096766 906028.5384
11430 147.789701 -35.786676 906724.6276
11460 148.244513 -37.473250 907425.7444
11490 148.725872 -39.156186 908129.7872
11520 149.236706 -40.835149 908834.6324
11550 149.780321 -42.509762 909538.1416
11580 150.360468 -44.179598 910238.1701
11610 150.981413 -45.844170 910932.5740
11640 151.648038 -47.502922 911619.2181
11670 152.365954 -49.155213 912295.9839
11700 153.141633 -50.800297 912960.7771
11730 153.982581 -52.437307 913611.5349
11760 154.897546 -54.065222 914246.2337
11790 155.896766 -55.682836 914862.8961
11820 156.992287 -57.288713 915459.5979
11850 158.198343 -58.881134 916034.4749
11880 159.531835 -60.458023 916585.7292
11910 161.012911 -62.016859 917111.6356
11940 162.665673 -63.554557 917610.5471
11970 164.519023 -65.067316 918080.9010
12000 166.607655 -66.550421 918521.2234
12030 168.973132 -67.997989 918930.1347
12060 171.664975 -69.402640 919306.3535
12090 174.741478 -70.755090 919648.7011
12120 178.269766 -72.043650 919956.1052
12150 182.324159 -73.253676 920227.6030
12180 186.981317 -74.367025 920462.3444
12210 192.310033 -75.361719 920659.5947
12240 198.353542 -76.212139 920818.7365
12270 205.104143 -76.890253 920939.2720
12300 212.475434 -77.368339 921020.8240
12330 220.285610 -77.623236 921063.1375
12360 228.269187 -77.641147 921066.0802
12390 236.123712 -77.421061 921029.6427
12420 243.574462 -76.975021 920953.9392
12450 250.425509 -76.325084 920839.2063
12480 256.576754 -75.498591 920685.8030
12510 262.010426 -74.523744 920494.2093
12540 266.763918 -73.426629 920265.0247
12570 270.903530 -72.229801 919998.9665
12600 274.505557 -70.951963 919696.8679
12630 277.645081 -69.608250 919359.6749
12660 280.390463 -68.210754 918988.4437
12690 282.801342 -66.769087 918584.3373
12720 284.928508 -65.290884 918148.6219
12750 286.814647 -63.782230 917682.6630
12780 288.495408 -62.247997 917187.9204
12810 290.000494 -60.692107 916665.9440
12840 291.354665 -59.117743 916118.3686
12870 292.578613 -57.527501 915546.9080
12900 293.689683 -55.923516 914953.3496
12930 294.702475 -54.307558 914339.5481
12960 295.629336 -52.681100 913707.4193
12990 296.480752 -51.045380 913058.9330
13020 297.265677 -49.401444 912396.1063
13050 297.991787 -47.750180 911720.9967
13080 298.665699 -46.092350 911035.6941
13110 299.293142 -44.428610 910342.3142
13140 299.879098 -42.759528 909642.9898
13170 300.427921 -41.085600 908939.8642
13200 300.943432 -39.407262 908235.0825
13230 301.428999 -37.724897 907530.7845
13260 301.887604 -36.038847 906829.0964
13290 302.321897 -34.349417 906132.1237
13320 302.734243 -32.656883 905441.9431
13350 303.126766 -30.961493 904760.5952
13380 303.501373 -29.263474 904090.0774
13410 303.859791 -27.563035 903432.3364
13440 304.203587 -25.860367 902789.2617
13470 304.534190 -24.155650 902162.6790
13500 304.852909 -22.449049 901554.3433
13530 305.160947 -20.740724 900965.9337
13560 305.459418 -19.030821 900399.0470
13590 305.749354 -17.319483 899855.1926
13620 306.031722 -15.606844 899335.7878
13650 306.307425 -13.893036 898842.1525
13680 306.577318 -12.178184 898375.5056
13710 306.842213 -10.462411 897936.9606
13740 307.102883 -8.745835 897527.5225
13770 307.360070 -7.028574 897148.0848
13800 307.614494 -5.310742 896799.4262
13830 307.866853 -3.592454 896482.2093
13860 308.117831 -1.873821 896196.9781
13890 308.368103 -0.154956 895944.1567
13920 308.618338 1.564029 895724.0485
13950 308.869207 3.283024 895536.8354
13980 309.121384 5.001915 895382.5778
14010 309.375551 6.720590 895261.2149
14040 309.632407 8.438933 895172.5651
14070 309.892667 10.156830 895116.3274
14100 310.157073 11.874161 895092.0827
14130 310.426396 13.590807 895099.2961
14160 310.701443 15.306642 895137.3185
14190 310.983066 17.021540 895205.3905
14220 311.272165 18.735368 895302.6443
14250 311.569701 20.447988 895428.1086
14280 311.876701 22.159257 895580.7113
14310 312.194272 23.869022 895759.2849
14340 312.523612 25.577126 895962.5708
14370 312.866019 27.283397 896189.2245
14400 313.222916 28.987655 896437.8209
14430 313.595857 30.689703 896706.8606
14460 313.986557 32.389332 896994.7754
14490 314.396913 34.086312 897299.9355
14520 314.829031 35.780390 897620.6552
